Sensor Model:	CX-1050-SD-HT-1.4L
Serial Number:	X189328
Data Format:	7	(Ohms/Kelvin)
Setpoint Limit:	325

Measurement (ohms)	Temp (K)	Curvature
6.13301E+01	3.30070E+02	2.60757E-01
6.19584E+01	3.26053E+02	2.51007E-01
6.29244E+01	3.20069E+02	2.36017E-01
6.37657E+01	3.15037E+02	2.24174E-01
6.46322E+01	3.10020E+02	2.12515E-01
6.64518E+01	2.99996E+02	1.90845E-01
6.83990E+01	2.89968E+02	1.70963E-01
7.04823E+01	2.79958E+02	1.52699E-01
7.27173E+01	2.69956E+02	1.35978E-01
7.51294E+01	2.59924E+02	1.20653E-01
7.77274E+01	2.49904E+02	1.06710E-01
8.05341E+01	2.39889E+02	9.40529E-02
8.35583E+01	2.29928E+02	8.26431E-02
8.68699E+01	2.19887E+02	7.22538E-02
9.04619E+01	2.09892E+02	6.29427E-02
9.43912E+01	1.99889E+02	5.45721E-02
9.87020E+01	1.89885E+02	4.70777E-02
1.03445E+02	1.79888E+02	4.03943E-02
1.08689E+02	1.69894E+02	3.44523E-02
1.14521E+02	1.59894E+02	2.91842E-02
1.21032E+02	1.49901E+02	2.45404E-02
1.28364E+02	1.39894E+02	2.04577E-02
1.36654E+02	1.29905E+02	1.68983E-02
1.46127E+02	1.19912E+02	1.38063E-02
1.57079E+02	1.09904E+02	1.11238E-02
1.69836E+02	9.99301E+01	8.84842E-03
1.77085E+02	9.49295E+01	7.85092E-03
1.85019E+02	8.99293E+01	6.89575E-03
1.93742E+02	8.49328E+01	5.97910E-03
2.03388E+02	7.99366E+01	5.16945E-03
2.14132E+02	7.49384E+01	4.44403E-03
2.26170E+02	6.99469E+01	3.75388E-03
2.39767E+02	6.49625E+01	3.13436E-03
2.55339E+02	5.99653E+01	2.57421E-03
2.73306E+02	5.49744E+01	2.07533E-03
2.94378E+02	4.99739E+01	1.64161E-03
3.03837E+02	4.79785E+01	1.48930E-03
3.19427E+02	4.49751E+01	1.26644E-03
3.36830E+02	4.19863E+01	1.06857E-03
3.56554E+02	3.89896E+01	8.89672E-04
3.79085E+02	3.59899E+01	7.30199E-04
4.05090E+02	3.29883E+01	5.90779E-04
4.25745E+02	3.08952E+01	5.05052E-04
4.45598E+02	2.90880E+01	4.36784E-04
4.64983E+02	2.74903E+01	3.81631E-04
4.86155E+02	2.59092E+01	3.31354E-04
5.09736E+02	2.43230E+01	2.85281E-04
5.36381E+02	2.27213E+01	2.42890E-04
5.65795E+02	2.11537E+01	2.05522E-04
5.88023E+02	2.00891E+01	1.82265E-04
6.12944E+02	1.90025E+01	1.59850E-04
6.38264E+02	1.80005E+01	1.40682E-04
6.66151E+02	1.70011E+01	1.22589E-04
6.97176E+02	1.60014E+01	1.06237E-04
7.31951E+02	1.50017E+01	8.89767E-05
7.71226E+02	1.40028E+01	7.63089E-05
8.16254E+02	1.30015E+01	6.24464E-05
8.68259E+02	1.20026E+01	5.06874E-05
9.29455E+02	1.10024E+01	4.00297E-05
1.00256E+03	1.00037E+01	3.07411E-05
1.09181E+03	9.00663E+00	2.27540E-05
1.20487E+03	8.00296E+00	1.59999E-05
1.35150E+03	7.00516E+00	1.06286E-05
1.50746E+03	6.20139E+00	7.21702E-06
1.68577E+03	5.50080E+00	4.85496E-06
1.84817E+03	5.00260E+00	3.52835E-06
2.00941E+03	4.60186E+00	2.62160E-06
2.20787E+03	4.20224E+00	1.88873E-06
2.32547E+03	4.00269E+00	1.58937E-06
2.45878E+03	3.80303E+00	1.30690E-06
2.61138E+03	3.60298E+00	1.06275E-06
2.78741E+03	3.40295E+00	8.49727E-07
2.99298E+03	3.20268E+00	6.66925E-07
3.23788E+03	3.00086E+00	5.11132E-07
3.53037E+03	2.80002E+00	3.82320E-07
3.88387E+03	2.60097E+00	2.77973E-07
4.32685E+03	2.40057E+00	1.94187E-07
4.89043E+03	2.20076E+00	1.29652E-07
5.63318E+03	2.00041E+00	8.16686E-08
6.64975E+03	1.79947E+00	4.79489E-08
8.12624E+03	1.59623E+00	2.57291E-08
1.03283E+04	1.39872E+00	1.25648E-08
1.19453E+04	1.29839E+00	8.19259E-09
1.40820E+04	1.19679E+00	2.41520E-09
