Sensor Model:   CX-1050-SD-HT-1.4L
Serial Number:  X189328
Data Format:    4      (Log Ohms/Kelvin)
SetPoint Limit: 325.0      (Kelvin)
Temperature coefficient:  1 (Negative)
Number of Breakpoints:   148

No.   Units      Temperature (K)

  1  1.78767       330.072
  2  1.79326       325.000
  3  1.80003       319.000
  4  1.80636       313.500
  5  1.81283       308.000
  6  1.81944       302.500
  7  1.82619       297.000
  8  1.83309       291.500
  9  1.84014       286.000
 10  1.84735       280.500
 11  1.85472       275.000
 12  1.86226       269.500
 13  1.86997       264.000
 14  1.87786       258.500
 15  1.88593       253.000
 16  1.89420       247.500
 17  1.90266       242.000
 18  1.91054       237.000
 19  1.91859       232.000
 20  1.92682       227.000
 21  1.93524       222.000
 22  1.94385       217.000
 23  1.95267       212.000
 24  1.96170       207.000
 25  1.97094       202.000
 26  1.98042       197.000
 27  1.99013       192.000
 28  2.00008       187.000
 29  2.01030       182.000
 30  2.02078       177.000
 31  2.03046       172.500
 32  2.04037       168.000
 33  2.05053       163.500
 34  2.06096       159.000
 35  2.07165       154.500
 36  2.08263       150.000
 37  2.09392       145.500
 38  2.10552       141.000
 39  2.11745       136.500
 40  2.12974       132.000
 41  2.14100       128.000
 42  2.15255       124.000
 43  2.16444       120.000
 44  2.17669       116.000
 45  2.18931       112.000
 46  2.20234       108.000
 47  2.21581       104.000
 48  2.22799       100.500
 49  2.23693        98.000
 50  2.24605        95.500
 51  2.25540        93.000
 52  2.26498        90.500
 53  2.27480        88.000
 54  2.28488        85.500
 55  2.29523        83.000
 56  2.30587        80.500
 57  2.31681        78.000
 58  2.32581        76.000
 59  2.33502        74.000
 60  2.34446        72.000
 61  2.35416        70.000
 62  2.36411        68.000
 63  2.37435        66.000
 64  2.38488        64.000
 65  2.39572        62.000
 66  2.40690        60.000
 67  2.41727        58.200
 68  2.42794        56.400
 69  2.43894        54.600
 70  2.45029        52.800
 71  2.46201        51.000
 72  2.47414        49.200
 73  2.48669        47.400
 74  2.49970        45.600
 75  2.51170        44.000
 76  2.52410        42.400
 77  2.53695        40.800
 78  2.55029        39.200
 79  2.56328        37.700
 80  2.57676        36.200
 81  2.59079        34.700
 82  2.60539        33.200
 83  2.61961        31.800
 84  2.63441        30.400
 85  2.64988        29.000
 86  2.66490        27.700
 87  2.68060        26.400
 88  2.69705        25.100
 89  2.71299        23.900
 90  2.72971        22.700
 91  2.74732        21.500
 92  2.76435        20.400
 93  2.77735        19.600
 94  2.78829        18.950
 95  2.79961        18.300
 96  2.81135        17.650
 97  2.82356        17.000
 98  2.83527        16.400
 99  2.84744        15.800
100  2.86013        15.200
101  2.87225        14.650
102  2.88488        14.100
103  2.89804        13.550
104  2.91054        13.050
105  2.92360        12.550
106  2.93727        12.050
107  2.95161        11.550
108  2.96669        11.050
109  2.98098        10.600
110  2.99599        10.150
111  3.01183         9.700
112  3.02858         9.250
113  3.04437         8.850
114  3.06102         8.450
115  3.07871         8.050
116  3.09753         7.650
117  3.11510         7.300
118  3.13375         6.950
119  3.15367         6.600
120  3.17504         6.250
121  3.19806         5.900
122  3.22076         5.580
123  3.24530         5.260
124  3.27025         4.960
125  3.29549         4.680
126  3.32288         4.400
127  3.35066         4.140
128  3.37501         3.930
129  3.39733         3.750
130  3.41989         3.580
131  3.44402         3.410
132  3.46998         3.240
133  3.49632         3.080
134  3.52292         2.930
135  3.55160         2.780
136  3.58271         2.630
137  3.61432         2.490
138  3.64872         2.350
139  3.68368         2.220
140  3.72187         2.090
141  3.76397         1.960
142  3.80696         1.840
143  3.85448         1.720
144  3.90306         1.610
145  3.95206         1.510
146  4.00685         1.410
147  4.01327         1.400
148  4.14867         1.197
