Sensor Model:	CX-1050-SD-HT-1.4L
Serial Number:	X117656
Data Format:	7	(Ohms/Kelvin)
Setpoint Limit:	325

Measurement (ohms)	Temp (K)	Curvature
4.51101E+01	3.30217E+02	5.42454E-01
4.55501E+01	3.26227E+02	5.21137E-01
4.62354E+01	3.20212E+02	4.87936E-01
4.68284E+01	3.15193E+02	4.62127E-01
4.74389E+01	3.10195E+02	4.36837E-01
4.87227E+01	3.00208E+02	3.90250E-01
5.01074E+01	2.90156E+02	3.47720E-01
5.15820E+01	2.80186E+02	3.09266E-01
5.31735E+01	2.70180E+02	2.74196E-01
5.48948E+01	2.60140E+02	2.42290E-01
5.67402E+01	2.50174E+02	2.13612E-01
5.87451E+01	2.40171E+02	1.87584E-01
6.09216E+01	2.30167E+02	1.64100E-01
6.32924E+01	2.20153E+02	1.42939E-01
6.58806E+01	2.10140E+02	1.23941E-01
6.87078E+01	2.00151E+02	1.06974E-01
7.18229E+01	1.90136E+02	9.17992E-02
7.52529E+01	1.80139E+02	7.83494E-02
7.90546E+01	1.70137E+02	6.64558E-02
8.32882E+01	1.60129E+02	5.59982E-02
8.80240E+01	1.50124E+02	4.68617E-02
9.33492E+01	1.40131E+02	3.89250E-02
9.94033E+01	1.30110E+02	3.20333E-02
1.06308E+02	1.20116E+02	2.60993E-02
1.14291E+02	1.10112E+02	2.09554E-02
1.23624E+02	1.00109E+02	1.65652E-02
1.28914E+02	9.51076E+01	1.46544E-02
1.34684E+02	9.01196E+01	1.28136E-02
1.41035E+02	8.51227E+01	1.11714E-02
1.48056E+02	8.01228E+01	9.70087E-03
1.55863E+02	7.51236E+01	8.27111E-03
1.64597E+02	7.01285E+01	7.01857E-03
1.74472E+02	6.51249E+01	5.86508E-03
1.85716E+02	6.01241E+01	4.83263E-03
1.98655E+02	5.51246E+01	3.91126E-03
2.13707E+02	5.01325E+01	3.11340E-03
2.20445E+02	4.81376E+01	2.83256E-03
2.31498E+02	4.51389E+01	2.42236E-03
2.43877E+02	4.21317E+01	2.05514E-03
2.57761E+02	3.91335E+01	1.72474E-03
2.73541E+02	3.61295E+01	1.42925E-03
2.91632E+02	3.31232E+01	1.16986E-03
3.06023E+02	3.10110E+01	1.00844E-03
3.19646E+02	2.92051E+01	8.80716E-04
3.33054E+02	2.75882E+01	7.75614E-04
3.47808E+02	2.59699E+01	6.78354E-04
3.64154E+02	2.43494E+01	5.88943E-04
3.82353E+02	2.27302E+01	5.06961E-04
4.02208E+02	2.11554E+01	4.34375E-04
4.17053E+02	2.00917E+01	3.89089E-04
4.31729E+02	1.91247E+01	3.49690E-04
4.47600E+02	1.81636E+01	3.12669E-04
4.64915E+02	1.72050E+01	2.77684E-04
4.84076E+02	1.62410E+01	2.44194E-04
5.05459E+02	1.52710E+01	2.12711E-04
5.29497E+02	1.42963E+01	1.80975E-04
5.56940E+02	1.33114E+01	1.53780E-04
5.88711E+02	1.23154E+01	1.27236E-04
6.26307E+02	1.13021E+01	1.02674E-04
6.71779E+02	1.02697E+01	8.00764E-05
7.27222E+02	9.23426E+00	6.01375E-05
7.96991E+02	8.19277E+00	4.28957E-05
8.87661E+02	7.15019E+00	2.88290E-05
9.81605E+02	6.32682E+00	1.99217E-05
1.08841E+03	5.60721E+00	1.36168E-05
1.18603E+03	5.09056E+00	9.99915E-06
1.28124E+03	4.68030E+00	7.50471E-06
1.42097E+03	4.19928E+00	5.15335E-06
1.49109E+03	3.99900E+00	4.38998E-06
1.57013E+03	3.79904E+00	3.63149E-06
1.66028E+03	3.59871E+00	2.97765E-06
1.76339E+03	3.39920E+00	2.40178E-06
1.88270E+03	3.20025E+00	1.90487E-06
2.02260E+03	3.00148E+00	1.47945E-06
2.19187E+03	2.79965E+00	1.11646E-06
2.39652E+03	2.59836E+00	8.19296E-07
2.64519E+03	2.40006E+00	5.83905E-07
2.96166E+03	2.19990E+00	3.98677E-07
3.36942E+03	2.00101E+00	2.60144E-07
3.92144E+03	1.80073E+00	1.58914E-07
4.70239E+03	1.60012E+00	8.75094E-08
5.86630E+03	1.40071E+00	4.19409E-08
6.67513E+03	1.30160E+00	3.14842E-08
7.75751E+03	1.19999E+00	1.74909E-08
