Sensor Model:   CX-1050-SD-HT-1.4L
Serial Number:  X117656
Data Format:    4      (Log Ohms/Kelvin)
SetPoint Limit: 325.0      (Kelvin)
Temperature coefficient:  1 (Negative)
Number of Breakpoints:   147

No.   Units      Temperature (K)

  1  1.65427       330.216
  2  1.65978       325.000
  3  1.66629       319.000
  4  1.67239       313.500
  5  1.67863       308.000
  6  1.68502       302.500
  7  1.69155       297.000
  8  1.69823       291.500
  9  1.70508       286.000
 10  1.71208       280.500
 11  1.71925       275.000
 12  1.72660       269.500
 13  1.73344       264.500
 14  1.74042       259.500
 15  1.74757       254.500
 16  1.75487       249.500
 17  1.76235       244.500
 18  1.77000       239.500
 19  1.77782       234.500
 20  1.78584       229.500
 21  1.79404       224.500
 22  1.80245       219.500
 23  1.81106       214.500
 24  1.81988       209.500
 25  1.82893       204.500
 26  1.83821       199.500
 27  1.84773       194.500
 28  1.85750       189.500
 29  1.86753       184.500
 30  1.87680       180.000
 31  1.88629       175.500
 32  1.89601       171.000
 33  1.90599       166.500
 34  1.91623       162.000
 35  1.92674       157.500
 36  1.93753       153.000
 37  1.94862       148.500
 38  1.96002       144.000
 39  1.97175       139.500
 40  1.98383       135.000
 41  1.99488       131.000
 42  2.00623       127.000
 43  2.01791       123.000
 44  2.02993       119.000
 45  2.04232       115.000
 46  2.05509       111.000
 47  2.06828       107.000
 48  2.08192       103.000
 49  2.09248       100.000
 50  2.10148        97.500
 51  2.11069        95.000
 52  2.12011        92.500
 53  2.12977        90.000
 54  2.13966        87.500
 55  2.14981        85.000
 56  2.16023        82.500
 57  2.17093        80.000
 58  2.18195        77.500
 59  2.19329        75.000
 60  2.20262        73.000
 61  2.21217        71.000
 62  2.22197        69.000
 63  2.23203        67.000
 64  2.24236        65.000
 65  2.25299        63.000
 66  2.26393        61.000
 67  2.27520        59.000
 68  2.28683        57.000
 69  2.29883        55.000
 70  2.30998        53.200
 71  2.32147        51.400
 72  2.33334        49.600
 73  2.34560        47.800
 74  2.35829        46.000
 75  2.37143        44.200
 76  2.38506        42.400
 77  2.39763        40.800
 78  2.41063        39.200
 79  2.42412        37.600
 80  2.43813        36.000
 81  2.45179        34.500
 82  2.46598        33.000
 83  2.48075        31.500
 84  2.49513        30.100
 85  2.51009        28.700
 86  2.52574        27.300
 87  2.54093        26.000
 88  2.55681        24.700
 89  2.57347        23.400
 90  2.58965        22.200
 91  2.60663        21.000
 92  2.62004        20.100
 93  2.63083        19.400
 94  2.64201        18.700
 95  2.65277        18.050
 96  2.66391        17.400
 97  2.67549        16.750
 98  2.68659        16.150
 99  2.69812        15.550
100  2.71014        14.950
101  2.72161        14.400
102  2.73356        13.850
103  2.74603        13.300
104  2.75908        12.750
105  2.77152        12.250
106  2.78453        11.750
107  2.79819        11.250
108  2.81112        10.800
109  2.82468        10.350
110  2.83896         9.900
111  2.85405         9.450
112  2.87004         9.000
113  2.88513         8.600
114  2.90108         8.200
115  2.91806         7.800
116  2.93618         7.400
117  2.95313         7.050
118  2.97117         6.700
119  2.99051         6.350
120  3.01253         5.980
121  3.03313         5.660
122  3.05391         5.360
123  3.07632         5.060
124  3.10064         4.760
125  3.12536         4.480
126  3.15034         4.220
127  3.17116         4.020
128  3.19109         3.840
129  3.21244         3.660
130  3.23405         3.490
131  3.25723         3.320
132  3.28072         3.160
133  3.30599         3.000
134  3.33162         2.850
135  3.35928         2.700
136  3.38937         2.550
137  3.41998         2.410
138  3.45091         2.280
139  3.48459         2.150
140  3.52156         2.020
141  3.55915         1.900
142  3.60058         1.780
143  3.64277         1.670
144  3.68963         1.560
145  3.74222         1.450
146  3.76879         1.400
147  3.88972         1.200
