Sensor Model:	CX-1050-SD-HT-1.4L
Serial Number:	X204446
Data Format:	7	(Ohms/Kelvin)
Setpoint Limit:	325

Measurement (ohms)	Temp (K)	Curvature
6.57598E+01	3.29946E+02	3.92315E+03
6.64687E+01	3.25945E+02	3.20035E+03
6.75688E+01	3.19950E+02	2.09386E+03
6.85183E+01	3.14952E+02	3.12804E+03
6.95014E+01	3.09952E+02	1.78115E+03
7.15663E+01	2.99936E+02	2.79948E+03
7.37790E+01	2.89947E+02	1.98332E+03
7.61593E+01	2.79932E+02	2.21008E+03
7.87174E+01	2.69931E+02	1.62251E+03
8.14659E+01	2.59934E+02	2.14569E+03
8.44490E+01	2.49924E+02	1.46731E+03
8.76689E+01	2.39926E+02	1.69523E+03
9.11658E+01	2.29935E+02	1.51634E+03
9.49776E+01	2.19938E+02	1.27281E+03
9.91352E+01	2.09933E+02	1.40848E+03
1.03698E+02	1.99929E+02	1.19812E+03
1.08716E+02	1.89924E+02	1.12632E+03
1.14246E+02	1.79931E+02	1.06726E+03
1.20382E+02	1.69933E+02	1.04747E+03
1.27230E+02	1.59937E+02	8.97657E+02
1.34902E+02	1.49936E+02	8.83085E+02
1.43560E+02	1.39929E+02	8.14679E+02
1.53390E+02	1.29932E+02	7.75460E+02
1.64666E+02	1.19937E+02	7.41360E+02
1.77753E+02	1.09935E+02	6.35455E+02
1.93086E+02	9.99384E+01	6.95140E+02
2.01832E+02	9.49382E+01	5.44491E+02
2.11406E+02	8.99393E+01	6.36332E+02
2.21970E+02	8.49434E+01	5.31116E+02
2.33685E+02	7.99447E+01	5.84977E+02
2.46782E+02	7.49482E+01	4.68526E+02
2.61499E+02	6.99475E+01	5.41288E+02
2.78238E+02	6.49513E+01	4.43937E+02
2.97435E+02	5.99508E+01	4.42422E+02
3.19736E+02	5.49445E+01	3.99120E+02
3.45932E+02	4.99456E+01	3.90509E+02
3.57745E+02	4.79516E+01	3.29405E+02
3.77247E+02	4.49495E+01	3.72849E+02
3.99165E+02	4.19605E+01	2.90565E+02
4.23961E+02	3.89754E+01	3.15928E+02
4.52537E+02	3.59789E+01	2.67984E+02
4.85637E+02	3.29845E+01	2.63690E+02
5.12309E+02	3.08794E+01	2.34699E+02
5.37831E+02	2.90773E+01	2.31589E+02
5.62959E+02	2.74781E+01	2.19338E+02
5.90738E+02	2.58844E+01	2.03831E+02
6.21577E+02	2.42993E+01	2.10446E+02
6.56365E+02	2.27130E+01	1.75281E+02
6.95918E+02	2.11223E+01	1.84246E+02
7.25760E+02	2.00522E+01	1.61419E+02
7.57677E+02	1.90130E+01	1.73019E+02
7.91753E+02	1.80106E+01	1.40380E+02
8.29394E+02	1.70106E+01	1.49123E+02
8.71480E+02	1.60105E+01	1.42546E+02
9.19185E+02	1.50068E+01	1.30817E+02
9.73452E+02	1.40053E+01	1.23745E+02
1.03589E+03	1.30059E+01	1.11780E+02
1.10875E+03	1.20067E+01	1.03240E+02
1.19535E+03	1.10059E+01	9.44373E+01
1.30020E+03	1.00051E+01	8.10937E+01
1.42981E+03	9.00584E+00	7.53713E+01
1.59643E+03	8.00354E+00	5.98824E+01
1.81714E+03	7.00314E+00	5.02127E+01
2.05527E+03	6.20018E+00	4.22022E+01
2.33313E+03	5.50035E+00	3.61095E+01
2.59247E+03	5.00166E+00	2.78607E+01
2.85207E+03	4.60258E+00	2.60615E+01
3.17815E+03	4.20285E+00	2.11263E+01
3.37380E+03	4.00329E+00	2.15238E+01
3.59978E+03	3.80244E+00	1.66449E+01
3.86043E+03	3.60159E+00	1.82198E+01
4.16578E+03	3.40090E+00	1.38448E+01
4.52505E+03	3.20082E+00	1.37475E+01
4.95335E+03	3.00203E+00	1.22291E+01
5.47863E+03	2.80230E+00	9.59808E+00
6.13462E+03	2.60103E+00	9.62648E+00
6.96347E+03	2.40159E+00	6.66742E+00
8.05112E+03	2.19988E+00	6.94620E+00
9.51569E+03	1.99988E+00	5.00766E+00
1.15793E+04	1.79982E+00	4.29975E+00
1.46530E+04	1.60012E+00	3.16209E+00
1.95882E+04	1.39976E+00	2.37631E+00
2.33057E+04	1.29883E+00	2.06049E+00
2.84045E+04	1.19811E+00	1.70093E+00
