Sensor Model:   CX-1050-SD-HT-1.4L
Serial Number:  X204446
Data Format:    4      (Log ?/Kelvin)
SetPoint Limit: 325      (Kelvin)
Temperature coefficient:  1 (Negative)
Number of Breakpoints:   158

No.   Units      Temperature (K)

  1  1.82373       325.000
  2  1.82848       321.000
  3  1.83513       315.500
  4  1.84130       310.500
  5  1.84822       305.000
  6  1.85527       299.500
  7  1.86050       295.500
  8  1.86718       290.500
  9  1.87398       285.500
 10  1.88092       280.500
 11  1.88800       275.500
 12  1.89596       270.000
 13  1.90334       265.000
 14  1.91087       260.000
 15  1.91780       255.500
 16  1.92567       250.500
 17  1.93369       245.500
 18  1.94189       240.500
 19  1.94942       236.000
 20  1.95711       231.500
 21  1.96496       227.000
 22  1.97388       222.000
 23  1.98299       217.000
 24  1.99136       212.500
 25  1.99992       208.000
 26  2.00868       203.500
 27  2.01762       199.000
 28  2.02677       194.500
 29  2.03717       189.500
 30  2.04676       185.000
 31  2.05658       180.500
 32  2.06549       176.500
 33  2.07575       172.000
 34  2.08627       167.500
 35  2.09708       163.000
 36  2.10814       158.500
 37  2.11822       154.500
 38  2.12984       150.000
 39  2.14043       146.000
 40  2.15130       142.000
 41  2.16242       138.000
 42  2.17386       134.000
 43  2.18558       130.000
 44  2.19611       126.500
 45  2.20692       123.000
 46  2.21959       119.000
 47  2.23099       115.500
 48  2.24273       112.000
 49  2.25479       108.500
 50  2.26717       105.000
 51  2.27993       101.500
 52  2.29118        98.500
 53  2.29888        96.500
 54  2.30672        94.500
 55  2.31671        92.000
 56  2.32487        90.000
 57  2.33321        88.000
 58  2.34173        86.000
 59  2.35041        84.000
 60  2.35930        82.000
 61  2.36838        80.000
 62  2.37768        78.000
 63  2.38722        76.000
 64  2.39696        74.000
 65  2.40696        72.000
 66  2.41721        70.000
 67  2.42508        68.500
 68  2.43587        66.500
 69  2.44695        64.500
 70  2.45548        63.000
 71  2.46420        61.500
 72  2.47549        59.600
 73  2.48527        58.000
 74  2.49663        56.200
 75  2.50836        54.400
 76  2.52046        52.600
 77  2.53292        50.800
 78  2.54435        49.200
 79  2.55469        47.800
 80  2.56840        46.000
 81  2.58098        44.400
 82  2.59242        43.000
 83  2.60591        41.400
 84  2.61900        39.900
 85  2.63255        38.400
 86  2.64571        37.000
 87  2.66035        35.500
 88  2.67456        34.100
 89  2.68932        32.700
 90  2.70361        31.400
 91  2.71848        30.100
 92  2.73397        28.800
 93  2.74889        27.600
 94  2.76446        26.400
 95  2.78072        25.200
 96  2.79778        24.000
 97  2.81422        22.900
 98  2.83147        21.800
 99  2.84790        20.800
100  2.86344        19.900
101  2.87511        19.250
102  2.88625        18.650
103  2.89877        18.000
104  2.91074        17.400
105  2.92314        16.800
106  2.93496        16.250
107  2.94721        15.700
108  2.95998        15.150
109  2.97202        14.650
110  2.98585        14.100
111  2.99762        13.650
112  3.01126        13.150
113  3.02402        12.700
114  3.03889        12.200
115  3.05284        11.750
116  3.06753        11.300
117  3.08285        10.850
118  3.09724        10.450
119  3.11417        10.000
120  3.12801         9.650
121  3.14469         9.250
122  3.16218         8.850
123  3.17610         8.550
124  3.19319         8.200
125  3.21110         7.850
126  3.22742         7.550
127  3.24756         7.200
128  3.26881         6.850
129  3.28842         6.550
130  3.30925         6.250
131  3.33214         5.940
132  3.35610         5.640
133  3.38006         5.360
134  3.40599         5.080
135  3.43386         4.800
136  3.46201         4.540
137  3.49249         4.280
138  3.52304         4.040
139  3.55077         3.840
140  3.57439         3.680
141  3.59960         3.520
142  3.62840         3.350
143  3.65753         3.190
144  3.68493         3.050
145  3.71436         2.910
146  3.74835         2.760
147  3.78276         2.620
148  3.81467         2.500
149  3.85491         2.360
150  3.89574         2.230
151  3.93324         2.120
152  3.98208         1.990
153  4.02328         1.890
154  4.07735         1.770
155  4.12229         1.680
156  4.17711         1.580
157  4.23169         1.490
158  4.29181         1.400
